        H             B            I       
      (A/m)          (T)          (A)      
  -------------  -----------  -----------  
         0.7853     0.000008    -0.002600
         6.2828     0.028292     0.002977
        10.2095     0.061457     0.008763
        14.1363     0.096643     0.014367
        14.9216     0.116883     0.017173
        18.8484     0.162538     0.022996
        20.4191     0.210838     0.028628
        23.5605     0.264088     0.034427
        25.9165     0.318783     0.040093
        29.0579     0.382619     0.046666
        31.4140     0.437488     0.052272
        32.9847     0.497153     0.058065
        36.1261     0.554900     0.063729
        40.8382     0.616547     0.069583
        43.1942     0.675498     0.075221
        47.1210     0.735312     0.081031
        53.4038     0.793317     0.086714
        62.8280     0.900630     0.097076
        68.3254     0.953653     0.102691
        71.4668     0.980533     0.105699
        86.3885     1.086760     0.117174
        91.1006     1.108163     0.119955
       100.5248     1.154235     0.125595
       109.9490     1.199809     0.131405
       114.6611     1.220145     0.134259
       127.2267     1.268595     0.140866
       140.5776     1.306241     0.146472
       144.5044     1.323084     0.149282
       158.6407     1.359333     0.155086
       174.3477     1.391818     0.160757
       181.4158     1.407270     0.163798
       201.8349     1.436272     0.169440
       221.4687     1.462886     0.175261
       233.2489     1.473831     0.178090
       259.1655     1.495991     0.183790
       331.4177     1.535320     0.196053
       415.4501     1.561084     0.207466
       492.4144     1.575438     0.216111
       572.5201     1.586969     0.224745
       692.6787     1.600528     0.237000
       779.0672     1.607858     0.245426
       870.1678     1.614711     0.254081
       993.4677     1.622930     0.265574
      1083.7830     1.628360     0.274232
      1229.0727     1.636262     0.287485
      1350.8020     1.642280     0.298885
      1441.1172     1.646465     0.307334
      1533.7885     1.650626     0.316012
      1659.4445     1.655967     0.327508
      1759.1840     1.660162     0.336906
      1852.6406     1.663729     0.345562
      1976.7259     1.668680     0.357086
      2067.8265     1.672018     0.365575
      2161.2831     1.675418     0.374289
      2307.3582     1.680664     0.387909
      2398.4588     1.683919     0.396468
      3480.6711     1.719029     0.496233
      4568.3808     1.749776     0.598318
      5629.3887     1.776881     0.698203
      6647.9876     1.800667     0.794819
      7728.6292     1.824368     0.897586
      8762.9351     1.845373     0.996568
      9807.4506     1.865348     1.096535
     10862.9609     1.884612     1.197781
     11897.2668     1.902531     1.297565
     12922.9339     1.919362     1.396647
     13981.5857     1.935848     1.499663
     14963.2732     1.950485     1.595323
     15988.1549     1.965219     1.695174
     17031.0997     1.979536     1.797217
     18048.9132     1.993057     1.897193
     19037.6689     2.005490     1.994605
     24127.5221     2.062404     2.499560
     29047.7397     2.107487     3.001746
     33736.2791     2.141679     3.496343
     38290.5236     2.166542     3.998189
     47109.2186     2.196423     4.999211
     56025.2969     2.214827     6.002225
     64729.3307     2.229354     6.994345
     73107.4443     2.242250     7.997249
     80397.0628     2.252800     8.998567
     86223.5743     2.260973     9.997712
     94521.5822     2.272319    12.001584