SLAC Magnetic Measurements
Date: 03-02-2017
Time: 14:47:32

Project: FACET_II
Magnet Type: Pure_Iron_Sample
Magnet Name: 4
Serial Number: 4
Run Number: 3
Measurement Device: perm
Operator: sda
Comment: B vs H from 0 to 12 A. Sample and permeameter degaussed together

Test Currents (A):
       0.000       0.006       0.012       0.018       0.021
       0.027       0.035       0.043       0.051       0.059
       0.067       0.075       0.081       0.087       0.093
       0.099       0.105       0.110       0.120       0.125
       0.130       0.135       0.140       0.145       0.150
       0.155       0.160       0.165       0.170       0.175
       0.180       0.185       0.190       0.200       0.210
       0.220       0.230       0.240       0.250       0.260
       0.270       0.280       0.290       0.300       0.310
       0.320       0.330       0.340       0.350       0.360
       0.370       0.380       0.390       0.400       0.500
       0.600       0.700       0.800       0.900       1.000
       1.100       1.200       1.300       1.400       1.500
       1.600       1.700       1.800       1.900       2.000
       2.500       3.000       3.500       4.000       5.000
       6.000       7.000       8.000       9.000      10.000
      12.000



   HYSTERESIS LOOP

        H             B            I       
      (A/m)          (T)          (A)      
  -------------  -----------  -----------  
         4.7121    -0.000078    -0.002618
        11.7802     0.025733     0.002941
        18.0630     0.056664     0.008747
        23.5605     0.090166     0.014345
        25.1312     0.109351     0.017147
        26.7019     0.152077     0.022982
        30.6286     0.196804     0.028597
        34.5554     0.271669     0.037244
        41.6235     0.357240     0.046637
        42.4089     0.408395     0.052253
        51.0477     0.491422     0.060887
        55.7598     0.575902     0.069542
        61.2573     0.630317     0.075194
        65.9694     0.685818     0.081001
        73.0375     0.739788     0.086694
        85.6031     0.838531     0.097055
        92.6713     0.887666     0.102663
        96.5980     0.913044     0.105668
       115.4464     1.011812     0.117149
       120.9439     1.032345     0.119947
       131.1534     1.076004     0.125573
       142.9337     1.118870     0.131396
       147.6458     1.138416     0.134244
       163.3528     1.184973     0.140858
       176.7037     1.221466     0.146459
       182.9865     1.238388     0.149258
       198.6935     1.274235     0.155064
       215.1859     1.307171     0.160726
       223.0394     1.323124     0.163780
       243.4585     1.352988     0.169424
       263.0922     1.381307     0.175261
       274.0871     1.393535     0.178077
       300.0037     1.418303     0.183771
       359.6903     1.465264     0.196032
       428.0157     1.500072     0.207446
       486.9170     1.521711     0.216087
       550.5303     1.540135     0.224731
       647.1284     1.562016     0.236993
       718.5952     1.574195     0.245408
       795.5595     1.585497     0.254056
       900.7964     1.598629     0.265570
       980.9021     1.607320     0.274209
      1107.3435     1.619029     0.287464
      1218.8632     1.627895     0.298869
      1302.8956     1.633814     0.307316
      1387.7134     1.639437     0.315999
      1502.3745     1.646521     0.327488
      1596.6165     1.651912     0.336882
      1684.5757     1.656623     0.345524
      1800.8075     1.662759     0.357068
      1886.4107     1.666895     0.365530
      1975.9405     1.671069     0.374251
      2118.0889     1.677394     0.387859
      2206.0481     1.681190     0.396446
      3260.7731     1.720381     0.496204
      4331.2051     1.753085     0.598311
      5384.3595     1.781087     0.698175
      6395.8902     1.805642     0.794771
      7472.6051     1.829843     0.897553
      8504.5549     1.851412     0.996538
      9545.1437     1.871773     1.096493
     10599.0833     1.891306     1.197729
     11631.8186     1.909473     1.297520
     12654.3442     1.926548     1.396601
     13717.7081     1.943406     1.499605
     14696.2542     1.958317     1.595254
     15720.3506     1.973164     1.695118
     16764.0807     1.987743     1.797133
     17781.8942     2.001338     1.897124
     18771.4352     2.013940     1.994518
     23866.7859     2.071758     2.499463
     28790.1449     2.117260     3.001674
     33466.1187     2.151438     3.496248
     37990.5199     2.175995     3.998088
     46721.2557     2.205633     4.999104
     55589.4276     2.224218     6.002109
     64268.3303     2.238967     6.994224
     72640.9464     2.251991     7.997102
     79925.0675     2.262567     8.998412
     85669.9026     2.270624     9.997561
     93926.2869     2.282232    12.001396

Measurement Parameters:
Sample geometry = Cylinder
Pickup coil diameter = 0.020429 m
Pickup coil number of turns = 180
Cylinder outer diameter = 0.018620 m
Hall probe hole diameter = 0.004816 m
