        H             B            I       
      (A/m)          (T)          (A)      
  -------------  -----------  -----------  
         2.3560    -0.000028    -0.002724
         5.4974     0.012698     0.000039
         7.8535     0.026592     0.002850
        10.2095     0.041413     0.005652
        12.5656     0.058349     0.008649
        13.3509     0.074367     0.011428
        15.7070     0.091905     0.014262
        18.8484     0.132373     0.020123
        19.6337     0.152737     0.022893
        21.2044     0.197029     0.028521
        21.9898     0.246604     0.034331
        24.3458     0.333060     0.043792
        27.4872     0.440649     0.055205
        28.2726     0.522423     0.063661
        30.6286     0.608845     0.072339
        38.4821     0.722282     0.083842
        45.5503     0.850424     0.096960
        49.4770     0.928186     0.105593
        58.1159     1.029023     0.117074
        60.4719     1.049670     0.119855
        67.5401     1.094726     0.125483
        70.6815     1.139287     0.131310
        74.6082     1.159033     0.134163
        83.2471     1.206950     0.140761
        89.5299     1.245106     0.146378
        94.2420     1.262332     0.149185
       102.8808     1.299581     0.154991
       111.5197     1.333436     0.160660
       119.3732     1.349848     0.163720
       131.1534     1.381118     0.169371
       146.0751     1.410695     0.175213
       151.5725     1.423404     0.178019
       168.8502     1.449493     0.183735
       217.5419     1.498814     0.195937
       274.8725     1.534615     0.207363
       329.8470     1.555526     0.216006
       392.6750     1.572306     0.224672
       497.1265     1.591180     0.236932
       574.8762     1.601284     0.245352
       657.3379     1.610150     0.254010
       772.7844     1.620319     0.265532
       859.9582     1.626974     0.274187
       998.1798     1.636204     0.287376
      1115.1970     1.643174     0.298784
      1203.1562     1.647849     0.307230
      1295.0421     1.652507     0.315912
      1415.9860     1.658346     0.327396
      1515.7255     1.662759     0.336802
      1607.6114     1.666646     0.345478
      1728.5553     1.671930     0.357015
      1818.0852     1.675571     0.365503
      1910.7565     1.679315     0.374225
      2053.6902     1.684854     0.387829
      2144.7908     1.688255     0.396402
      3222.2910     1.724874     0.496164
      4294.2937     1.756505     0.598256
      5346.6627     1.784042     0.698122
      6355.0520     1.808314     0.794798
      7429.4108     1.832258     0.897558
      8455.0779     1.853709     0.996556
      9491.7399     1.874065     1.096506
     10540.1821     1.893610     1.197779
     11570.5613     1.911745     1.297568
     12588.3748     1.928738     1.396675
     13647.0266     1.945456     1.499672
     14622.4313     1.960183     1.595387
     15642.6009     1.974955     1.695245
     16683.1896     1.989473     1.797272
     17699.4325     2.002919     1.897246
     18684.2614     2.015513     1.994680
     23765.4757     2.073467     2.499646
     28677.8399     2.119338     3.001883
     33350.6723     2.154326     3.496571
     37882.1416     2.179934     3.998443
     46598.7411     2.210452     4.999555
     55445.7086     2.229284     6.002645
     64105.7628     2.244069     6.994825
     72448.5357     2.257030     7.997711
     79711.4523     2.267580     8.999102
     85516.7593     2.275799     9.998287
     93791.2067     2.287144    12.002135
